#Correlation Values: Nind=172.094, Tcorr=5.811
#Simlength:1000ns, MaxBlockSize:100.0ns
0.03 0.007231818376427193
0.05 0.010180146538542148
0.08 0.012429068703243323
0.1 0.014312345396179297
0.12 0.01595913400609809
0.15 0.01744266657171268
0.18 0.01879180482418977
0.2 0.020051584888301312
0.23 0.02121220234191413
0.25 0.022315359182539563
0.28 0.02335917412702615
0.3 0.024340384396560017
0.33 0.02528873199078889
0.35 0.02619009177842152
0.38 0.027049699858529244
0.4 0.027868021171679167
0.43 0.028675029543241394
0.45 0.029448866093446078
0.48 0.030179637590240775
0.5 0.030914494959667863
0.53 0.03165559823988548
0.55 0.03227915254764478
0.58 0.03296445764388905
0.6 0.033620757216514925
0.62 0.034241109194953115
0.65 0.03480984502660297
0.68 0.035384181089245514
0.7 0.03599331817544916
0.73 0.036631603636959095
0.75 0.03719122229501934
0.78 0.037707967588966565
0.8 0.03820291998045241
0.83 0.03874600060710556
0.85 0.03922109269305342
0.88 0.039755031070137885
0.9 0.04027145523554233
0.93 0.04074656917998952
0.95 0.04126725639329156
0.98 0.0416988143578704
1.0 0.04206220210641001
1.03 0.04251616396398948
1.05 0.04316601363194806
1.07 0.04341365176693815
1.1 0.043822539388368414
1.12 0.04424507631628567
1.15 0.04466304174490727
1.18 0.04510683916015732
1.2 0.045407534002776105
1.23 0.04585200914531621
1.25 0.04641620959224434
1.28 0.046712535356940685
1.3 0.04697930008590993
1.33 0.04744053116166593
1.35 0.04759828110747555
1.38 0.04829535370489214
1.4 0.04858229250879217
1.43 0.04867526308339992
1.45 0.04911135325448866
1.48 0.049651199124401836
1.5 0.04985193169784459
1.53 0.05023027956862575
1.55 0.05054810103569728
1.58 0.05078780342204816
1.6 0.05135628652517542
1.62 0.05152071620155059
1.65 0.05174377534839603
1.68 0.051977589855007424
1.7 0.05228263183204423
1.73 0.05249870663380965
1.75 0.05315708447080409
1.78 0.053528351766049344
1.8 0.05334724108449862
1.83 0.05370309985231778
1.85 0.05404424571327175
1.88 0.05453563846595854
1.9 0.054500952727177164
1.93 0.055055853509334375
1.95 0.05524185231605608
1.98 0.05567849238085058
2.0 0.055643099715445406
2.02 0.055723464968127225
2.05 0.056239253105989935
2.08 0.0562592988809388
2.1 0.05692955556836048
2.12 0.057394268548714586
2.15 0.05734888564960208
2.18 0.05769098314677222
2.2 0.057581909603942605
2.23 0.05803250649102063
2.25 0.05787984853837303
2.27 0.058509130248693725
2.3 0.05844693882517217
2.33 0.059165789634535615
2.35 0.05911280737206451
2.38 0.058887860722148515
2.4 0.059797205398309336
2.43 0.06007144459693705
2.45 0.06012446473487086
2.48 0.06009734453872577
2.5 0.06066076863761584
2.53 0.0603359101684397
2.55 0.061021883881494696
2.58 0.06073210998245285
2.6 0.06172878717496445
2.62 0.061032025084554666
2.65 0.061527265808673993
2.68 0.06254849653743873
2.7 0.061909608356346395
2.73 0.06209139362979503
2.75 0.06227099360224892
2.78 0.06264174033736644
2.8 0.06310893666702785
2.83 0.06331699979856886
2.85 0.06315439726371701
2.88 0.06380969376410238
2.9 0.06371998613845499
2.93 0.06418590383774582
2.95 0.06344116994296517
2.98 0.06402128299572125
3.0 0.06488527049818392
3.03 0.06423792440294465
3.05 0.06481066462552858
3.08 0.06553137827335959
3.1 0.06537451350358396
3.12 0.06443427788108222
3.15 0.0652134254008159
3.18 0.06569934212526554
3.2 0.06614549465125115
3.23 0.06584227787839822
3.25 0.06661023049686994
3.28 0.06589003404233115
3.3 0.06605925557787928
3.33 0.06649292183148899
3.35 0.06621469538193847
3.38 0.06706802584252246
3.4 0.06775534385127427
3.43 0.06737430357128443
3.45 0.06736080576816031
3.48 0.06791348704457498
3.5 0.0679736635800773
3.53 0.06869085169387099
3.55 0.06888739925357339
3.58 0.06882175557521998
3.6 0.06905720790988239
3.62 0.06803432293369553
3.65 0.06819956613823844
3.68 0.06951845298580397
3.7 0.06993416270959364
3.73 0.06951769371635397
3.75 0.06935046669318468
3.78 0.0701957788315222
3.8 0.06916537638763443
3.83 0.06944433038439675
3.85 0.07018807538991079
3.88 0.06944711069333706
3.9 0.06958094522551078
3.93 0.06992887657632375
3.95 0.0699150940469922
3.98 0.0705391846198021
4.0 0.0711447654650049
4.03 0.07020196622010756
4.05 0.07032613925069728
4.08 0.07075169562834531
4.1 0.07188790231956792
4.12 0.07299872374318012
4.15 0.0705354102967539
4.17 0.07168694000303508
4.2 0.07283850847683271
4.23 0.07220530507617166
4.25 0.06991537689153797
4.28 0.07143161467411067
4.3 0.07321495971683972
4.33 0.07240105665544318
4.35 0.0714423573527611
4.38 0.07326296745416082
4.4 0.0738968221003607
4.42 0.07270572375986702
4.45 0.07331037465228016
4.48 0.07380130353989461
4.5 0.07344233134894587
4.53 0.0732602583798191
4.55 0.07414285210114266
4.58 0.07317251755505211
4.6 0.07420913584877481
4.62 0.0737592153292388
4.65 0.07434548260808757
4.67 0.07356293734192781
4.7 0.07288876984035147
4.73 0.07447518468719168
4.75 0.07515785728683239
4.78 0.07393006153445082
4.8 0.07577281460021174
4.83 0.07452187920911595
4.85 0.07645807899054624
4.88 0.07443605741943837
4.9 0.07608660918121972
4.93 0.07410493763392142
4.95 0.07533009068098839
4.98 0.07554354120522984
5.0 0.07518892634546781
5.03 0.07548023087016191
5.05 0.07573395803651795
5.08 0.07596183633915374
5.1 0.07692008993521872
5.12 0.07811822519833081
5.15 0.07533235751735827
5.18 0.07692420184955422
5.2 0.07544255231376132
5.23 0.07578236484179082
5.25 0.07797293731061936
5.28 0.07736149986503447
5.3 0.07632675272661213
5.33 0.07798740564177994
5.35 0.07702793465330592
5.38 0.07836944487794521
5.4 0.07722255155745991
5.43 0.0779434700819052
5.45 0.07802575739155523
5.48 0.07561000719577253
5.5 0.07749052595136643
5.53 0.0776196827716556
5.55 0.07671674253308998
5.58 0.07700223442506136
5.6 0.0784530893276908
5.62 0.07906082299834173
5.65 0.07822647100618572
5.68 0.07873303478780501
5.7 0.07664964884524623
5.73 0.08009551145380357
5.75 0.07784676375121588
5.78 0.07860003493217785
5.8 0.07926965874319836
5.83 0.07735672655257753
5.85 0.0782923873223832
5.88 0.0777713429267159
5.9 0.07945200419751754
5.93 0.08029966121952797
5.95 0.08040912090051404
5.98 0.07805931452038849
6.0 0.081481023535792
6.03 0.07865336910155774
6.05 0.08002344073069245
6.08 0.08014134239187395
6.1 0.07929487584297341
6.12 0.07841261387561685
6.15 0.08020006797749221
6.18 0.07781567314476882
6.2 0.07957526359501503
6.23 0.07906636377376276
6.25 0.07885936502507848
6.28 0.08065243565657879
6.3 0.07860243374988841
6.33 0.07994606900450539
6.35 0.08075216365632736
6.38 0.08217389660904537
6.4 0.0812223106668936
6.43 0.08140491232315072
6.45 0.08209486769739706
6.48 0.08126853296691917
6.5 0.08207174363714757
6.53 0.08032510008729175
6.55 0.08182820239841683
6.58 0.08026115959958317
6.6 0.08127754043956795
6.62 0.07995140128139114
6.65 0.08191175398929196
6.68 0.0795131958584024
6.7 0.08223400878971965
6.73 0.08158564207298707
6.75 0.08318668333761578
6.78 0.0818707919923939
6.8 0.0823255928277934
6.83 0.08381396629845923
6.85 0.08110806302966198
6.88 0.08364799872581656
6.9 0.08069650534003917
6.93 0.08148275790480525
6.95 0.08297595626020493
6.98 0.082985760299194
7.0 0.08164212293051931
7.03 0.08384144701814597
7.05 0.08301315010383935
7.08 0.08312737752875675
7.1 0.0813817743871822
7.12 0.08081966002274929
7.15 0.08147416024465216
7.18 0.0834141550181161
7.2 0.08288197851701073
7.23 0.08244979737912775
7.25 0.08236635628579382
7.28 0.08494424378628285
7.3 0.08528114937666229
7.33 0.08553715196940039
7.35 0.08313952969453177
7.38 0.08370926981441014
7.4 0.0834986497601161
7.43 0.08423937038808492
7.45 0.08566985155276335
7.48 0.08428151171034735
7.5 0.08571487210299898
7.53 0.08342125579507052
7.55 0.08716080749740694
7.58 0.08573103600303711
7.6 0.08323466649758199
7.62 0.08459955553909813
7.65 0.08512343947663173
7.68 0.08488866487882167
7.7 0.08462069337289531
7.73 0.08285090495908289
7.75 0.08145657211946605
7.78 0.08380687306090495
7.8 0.08388315422613883
7.83 0.0864292514862108
7.85 0.08551114697434925
7.88 0.08199963047668882
7.9 0.08527691274528078
7.93 0.08743945547914424
7.95 0.08564799673174821
7.98 0.08712634320892573
8.0 0.0853300341615292
8.03 0.08470130347490919
8.05 0.08720047262224272
8.08 0.08702931863904072
8.1 0.08621108182964458
8.12 0.08527503222438224
8.15 0.08332389987470237
8.18 0.08564175594160299
8.2 0.08529319132949215
8.22 0.08329014004990663
8.25 0.08746468577935006
8.28 0.08588288460142054
8.3 0.08255840146525721
8.33 0.08499953756971156
8.35 0.0855626489409038
8.38 0.08386011521813773
8.4 0.0863527268212427
8.43 0.08641105640468763
8.45 0.08483712690908
8.47 0.08343422961544038
8.5 0.08504424740144266
8.53 0.08617271909775491
8.55 0.08464813127200888
8.58 0.0871654916228586
8.6 0.08875416938845573
8.62 0.08634204442400595
8.65 0.08563680473144118
8.68 0.08823427431708446
8.7 0.08892799738768403
8.72 0.09043374621229576
8.75 0.09101550616266375
8.78 0.08870236736833885
8.8 0.08600124493326322
8.83 0.08707887602249002
8.85 0.08698003973686236
8.88 0.08762324883173146
8.9 0.08892461983274695
8.93 0.0889120407973137
8.95 0.08795237612857952
8.97 0.08711941194190197
9.0 0.08890748225288767
9.03 0.09028302364162968
9.05 0.08882292946535215
9.08 0.08939563508173533
9.1 0.09040332023576342
9.12 0.08979569604611683
9.15 0.08802740871452856
9.18 0.08619298199041786
9.2 0.08565086002640833
9.22 0.08615344197046391
9.25 0.08641298270190531
9.28 0.08707342103935928
9.3 0.08838844727691768
9.33 0.08837504544019624
9.35 0.08759818756721086
9.38 0.08875949409160021
9.4 0.0888248454999695
9.43 0.09016536885525755
9.45 0.08859765531744604
9.47 0.08964405000864163
9.5 0.09111270022900628
9.53 0.09053409582680269
9.55 0.08824463090749758
9.58 0.08652264710065823
9.6 0.08821432277598164
9.62 0.08937616404620462
9.65 0.08803627368442182
9.68 0.08744116568111167
9.7 0.08962820901737029
9.73 0.09013766221830549
9.75 0.08868306205692456
9.78 0.0868433348785086
9.8 0.0887781973825745
9.83 0.09023141090145798
9.85 0.09008684683385237
9.88 0.09042196236118888
9.9 0.09042624642782193
9.93 0.09068411420270248
9.95 0.09073840005874124
9.98 0.09026051187806897
10.0 0.09075537643052499
10.03 0.08931224246785645
10.05 0.08688382320097861
10.08 0.08487380945504164
10.1 0.08588762766160948
10.12 0.08834801789298793
10.15 0.09028756357062158
10.18 0.08891446895872233
10.2 0.08964736579004606
10.23 0.0897440011839534
10.25 0.09197092099857204
10.28 0.09181628111080543
10.3 0.09156270688541408
10.33 0.09043831432182657
10.35 0.09033040793536187
10.38 0.0896411165477602
10.4 0.09016270099487754
10.43 0.09147637059075565
10.45 0.09091724255721842
10.48 0.09141637712386448
10.5 0.09498869419591226
10.53 0.09456138060014649
10.55 0.09430227466094032
10.58 0.09348711131596595
10.6 0.09358697479564465
10.62 0.09656422284467854
10.65 0.09626199991227652
10.68 0.09281794662607445
10.7 0.09243959471125966
10.73 0.09228896784082624
10.75 0.09330581634836273
10.78 0.09276567680886799
10.8 0.09185266036935301
10.83 0.0932176008211591
10.85 0.09533959998978725
10.88 0.09677796706648016
10.9 0.09715771380386042
10.93 0.09471587799907967
10.95 0.09036780066426969
10.98 0.08980163745775702
11.0 0.08987784545159386
11.03 0.08986353139779651
11.05 0.09030858954346754
11.08 0.08924052413644507
11.1 0.09155602963875806
11.12 0.09388289188723357
11.15 0.09507654181580737
11.18 0.0957036542465849
11.2 0.09290101917584082
11.23 0.09145268311264199
11.25 0.09054553305963291
11.28 0.08958847152298131
11.3 0.091950626465642
11.33 0.09218387733576303
11.35 0.0921081679742695
11.38 0.09042082428751057
11.4 0.09002417113567761
11.43 0.09000240806176621
11.45 0.09179675029662385
11.48 0.0923658831816033
11.5 0.09239878835904768
11.53 0.09179725765300287
11.55 0.09038193610380908
11.58 0.08847954843483252
11.6 0.08808598948273456
11.62 0.08778056758242761
11.65 0.08749214714752519
11.68 0.08712538289217021
11.7 0.0885063075925894
11.73 0.0897450842881062
11.75 0.09107255105223092
11.78 0.09214422376533667
11.8 0.0921289229294537
11.83 0.09212236622676753
11.85 0.09218553241557335
11.88 0.09409136398329575
11.9 0.0961532319574896
11.93 0.09648627086005494
11.95 0.09299594700598672
11.98 0.09149936942490758
12.0 0.09119526105285905
12.03 0.09274685524694713
12.05 0.09313158803336796
12.08 0.09608472303657664
12.1 0.0976687953169712
12.12 0.09640411012439051
12.15 0.09367701325011388
12.18 0.09197104124450993
12.2 0.09097504852601328
12.23 0.08910150626195007
12.25 0.08702937019139415
12.28 0.08615140146688363
12.3 0.08713911647695496
12.33 0.08793930170287916
12.35 0.09083634883856881
12.38 0.0951589749873747
12.4 0.09517816553041007
12.43 0.09346781948144256
12.45 0.0923920071930984
12.48 0.09201852731753217
12.5 0.09043004557743307
12.53 0.0920584204437837
12.55 0.09256636616818598
12.58 0.09199444871190646
12.6 0.09201917965324047
12.62 0.0915637986597014
12.65 0.09205030302597798
12.68 0.09254238708665512
12.7 0.09317792855226865
12.73 0.09389499564404515
12.75 0.09563898353065015
12.78 0.09693932352953438
12.8 0.09529308116792619
12.83 0.09423161747070234
12.85 0.09436347348561973
12.88 0.09330916415698194
12.9 0.09397838396327839
12.93 0.09515754348235876
12.95 0.09590520544337026
12.98 0.09680671976143623
13.0 0.09683698128826697
13.03 0.09556031276115576
13.05 0.09316141977004828
13.08 0.09301159452538119
13.1 0.09338192480269772
13.12 0.09419257094336606
13.15 0.09463121934473878
13.18 0.09556729903816898
13.2 0.09440511582189622
13.23 0.0942614948599505
13.25 0.09380858949447655
13.28 0.09402704881368422
13.3 0.09376616554330003
13.33 0.09513293023360536
13.35 0.09647713123584546
13.38 0.09881304002043625
13.4 0.09871764261242086
13.43 0.0973372453952688
13.45 0.0968202496749543
13.48 0.09718581749015331
13.5 0.09843779205211382
13.53 0.09961809886109313
13.55 0.09784878575244293
13.58 0.09802904499449772
13.6 0.09812049898590691
13.62 0.09770955338906198
13.65 0.09572687556280185
13.68 0.09347180621999329
13.7 0.09362588356168124
13.73 0.09753711254430178
13.75 0.09884648396117021
13.78 0.09941108541138706
13.8 0.09926440663768314
13.83 0.09888196529221488
13.85 0.09768051191307618
13.88 0.09700182669082176
13.9 0.0990054939088105
13.93 0.09937559388759516
13.95 0.09888627924270865
13.98 0.09748871122525854
14.0 0.09734020075865592
14.03 0.09767157271121513
14.05 0.09803121532073472
14.08 0.09533155052846591
14.1 0.09373144421217407
14.12 0.09346268067496451
14.15 0.0940892632465964
14.18 0.09299301485174656
14.2 0.09270913577929098
14.23 0.09116478610828375
14.25 0.09107522259214333
14.28 0.09237930002399646
14.3 0.09484445756779517
14.33 0.0961288113144489
14.35 0.097640305761538
14.38 0.09809564026210417
14.4 0.09798512918132242
14.43 0.0981279211208153
14.45 0.09663890775987605
14.48 0.09573873388779428
14.5 0.0936110296931659
14.53 0.09192180649807404
14.55 0.0910850669743981
14.58 0.09195455469218848
14.6 0.09339756250931285
14.62 0.09545315912717824
14.65 0.09586487435163829
14.68 0.0955261211569265
14.7 0.09491804886161774
14.73 0.09566750591594059
14.75 0.09391772158895308
14.78 0.09174260360005096
14.8 0.09141705417891186
14.83 0.09206505400619158
14.85 0.09178770629984202
14.88 0.09395855145723284
14.9 0.095920255822282
14.93 0.0953270436139764
14.95 0.0968725605279244
14.98 0.09618162659348596
15.0 0.09300077973858327
15.03 0.08893105188086034
15.05 0.08734427380411794
15.08 0.0873796967078335
15.1 0.08841523874198103
15.12 0.08870071156345774
15.15 0.08988250985529095
15.18 0.0914668013232835
15.2 0.09303833535300818
15.23 0.09420282917492519
15.25 0.0955475609781074
15.28 0.0966237651045507
15.3 0.09714610756653091
15.33 0.09656848180194874
15.35 0.09680655846952516
15.38 0.0982075266574263
15.4 0.10019725561515914
15.43 0.09927054765100808
15.45 0.09767936010180889
15.48 0.09689643486065361
15.5 0.09508441531721042
15.53 0.09433853500160709
15.55 0.09299202145659921
15.58 0.09313622876992682
15.6 0.09333706262543794
15.62 0.09507011846240505
15.65 0.09829878684037423
15.68 0.09668579577546944
15.7 0.09456989362599905
15.73 0.09273879066664792
15.75 0.0930514576298386
15.78 0.09307997364678787
15.8 0.09350162337796394
15.83 0.09387084394301701
15.85 0.09458905584825013
15.88 0.09569470626611534
15.9 0.09746215069836156
15.93 0.10049358254044642
15.95 0.10226207929060296
15.98 0.10263628791709438
16.0 0.10140335074482094
16.03 0.10032768492034436
16.05 0.0994487564107185
16.07 0.09793602185764214
16.1 0.0974904721480935
16.12 0.09761194424554245
16.15 0.0977291728140179
16.18 0.09682402036717214
16.2 0.09659536859237691
16.23 0.09736116176939069
16.25 0.09787704643662123
16.28 0.09852478838300155
16.3 0.098644911543612
16.32 0.09939035862105344
16.35 0.1014169060258752
16.38 0.10099046690875661
16.4 0.10018580620051193
16.43 0.10062972761009906
16.45 0.09973806280568358
16.48 0.10016548721028329
16.5 0.10003244595921153
16.53 0.09964066540194169
16.55 0.10007135396037653
16.57 0.0993817473195678
16.6 0.09867870615875168
16.62 0.1002340266125329
16.65 0.10250230411694829
16.68 0.10205490999449222
16.7 0.10345812732831619
16.73 0.10288777915788279
16.75 0.10184355787214878
16.78 0.10121064838211805
16.8 0.1024494473878462
16.82 0.10363764891744866
16.85 0.10347780667073052
16.88 0.10264818274378533
16.9 0.10085448855846728
16.93 0.09837863199200073
16.95 0.09744845959992463
16.98 0.09824402909561762
17.0 0.09658027698832064
17.03 0.09663059986746332
17.05 0.09571302399027992
17.07 0.09527734636222693
17.1 0.09599627768627744
17.12 0.09751999684763246
17.15 0.09940079172878441
17.18 0.10063377547489145
17.2 0.10092542653348224
17.23 0.10057704473848761
17.25 0.09799526191073239
17.28 0.09781752396765978
17.3 0.09702809466993038
17.32 0.09543907488654753
17.35 0.09544408843063217
17.38 0.09467209678147817
17.4 0.0938108574590421
17.43 0.09352994575436029
17.45 0.09413541022928457
17.48 0.0949954663675573
17.5 0.09557794073515251
17.53 0.09755794471301107
17.55 0.09964192090556113
17.57 0.10198882480236451
17.6 0.10252187631665596
17.62 0.10248994359269183
17.65 0.1032224667803707
17.68 0.10366833975509707
17.7 0.1030536333740989
17.73 0.10297791676733005
17.75 0.1030947027848296
17.78 0.1022285367666242
17.8 0.10172848578711648
17.82 0.10108000897156591
17.85 0.10043369831222196
17.88 0.10178714073082812
17.9 0.10177507186977905
17.93 0.10165685616307099
17.95 0.1028937914042991
17.98 0.1040393524851331
18.0 0.10450746223236443
18.03 0.10397849539934026
18.05 0.10379720485642713
18.07 0.10348339997897187
18.1 0.10332193349623678
18.12 0.10354306386339741
18.15 0.10181869119067552
18.18 0.10127232580266735
18.2 0.10117016364574999
18.23 0.09907002452673017
18.25 0.09785666234799151
18.28 0.09753300708713777
18.3 0.09843769786415466
18.32 0.09857795056642629
18.35 0.0986358804979972
18.38 0.09808610447448034
18.4 0.09795686623848818
18.43 0.09911837268378498
18.45 0.09927709527782964
18.48 0.09966373793783426
18.5 0.10014511360458303
18.53 0.10113665030741097
18.55 0.10275291559128699
18.57 0.10334046514515997
18.6 0.10372271199685328
18.62 0.1031748540526617
18.65 0.10281517889382195
18.68 0.10253438495113629
18.7 0.1024239777393397
18.73 0.10204385172270695
18.75 0.10031504513666639
18.78 0.09937240568189144
18.8 0.09899918400309668
18.82 0.09956390083758745
18.85 0.09809775964293135
18.88 0.09691527201324152
18.9 0.09703411999670183
18.93 0.09708587712077275
18.95 0.09783134080696855
18.98 0.09944476724299763
19.0 0.10113450913838953
19.03 0.10300082515436265
19.05 0.10294458407778591
19.07 0.10264830901991019
19.1 0.10348486818947805
19.12 0.10434714647026674
19.15 0.10457088026350116
19.18 0.10427571126914202
19.2 0.10369178843985803
19.23 0.10446872067416917
19.25 0.10652781626389247
19.28 0.10541959051978907
19.3 0.10423197596378979
19.33 0.10232910156852745
19.35 0.10072564814745809
19.38 0.09973967894977874
19.4 0.09975354976222112
19.43 0.10011131813693314
19.45 0.10032991325899986
19.48 0.09974883145466366
19.5 0.09890394549423195
19.53 0.09853027360728382
19.55 0.09863129343765405
19.58 0.09836263663254424
19.6 0.09940325363283091
19.62 0.10346204625009052
19.65 0.10447522494895459
19.68 0.1063838490470327
19.7 0.10680483674882019
19.73 0.10636176269438938
19.75 0.10562295193613144
19.78 0.1051907786415167
