#Correlation Values: Nind=150.208, Tcorr=6.657
#Simlength:1000ns, MaxBlockSize:100.0ns
0.03 0.03187304488098312
0.05 0.04490352152118685
0.08 0.05485048875144067
0.1 0.06318825984405005
0.12 0.07049393420939828
0.15 0.077058311004904
0.18 0.08305047824676944
0.2 0.08863725526837564
0.23 0.09379605975107227
0.25 0.09870763198173438
0.28 0.1033138252163539
0.3 0.1076915001843384
0.33 0.11187275866186255
0.35 0.11591382992982746
0.38 0.11970842954316668
0.4 0.12335707994113372
0.43 0.12696325977646236
0.45 0.1304493620519833
0.48 0.13371258592347784
0.5 0.1369972441268864
0.53 0.1402107293778265
0.55 0.14315642820705848
0.58 0.14600232890145495
0.6 0.14912430613518082
0.62 0.151952058466682
0.65 0.15438973857364927
0.68 0.15691271731147394
0.7 0.15982271980141333
0.73 0.1625742093679437
0.75 0.16493556600842918
0.78 0.167286016363333
0.8 0.1697927342935799
0.83 0.1721148748996635
0.85 0.17428906069540445
0.88 0.17650613897625003
0.9 0.17853983615222796
0.93 0.18133444973672028
0.95 0.1834546565392719
0.98 0.18532369470109616
1.0 0.18681469054066902
1.03 0.1889484224995598
1.05 0.19176721121989931
1.07 0.1933605905436816
1.1 0.19509735960364982
1.12 0.19714868742320082
1.15 0.1988406249613614
1.18 0.20062131958966817
1.2 0.20265534697914822
1.23 0.20477090898301709
1.25 0.20649133661262212
1.28 0.20806703685262531
1.3 0.20958662125769656
1.33 0.211480717667621
1.35 0.2122393161912592
1.38 0.21548733791580724
1.4 0.21648986752329702
1.43 0.21683045186947592
1.45 0.21919448650785128
1.48 0.2213925837640208
1.5 0.22237889131783425
1.53 0.2232410409913975
1.55 0.22560147450468848
1.58 0.22692037626142963
1.6 0.22858575313853685
1.62 0.22961877671276357
1.65 0.23090766404653038
1.68 0.23258495119673947
1.7 0.23347606909622523
1.73 0.23539265954450544
1.75 0.23817073044573203
1.78 0.23894116460769624
1.8 0.23865245097797855
1.83 0.23918216826907635
1.85 0.24215431447466607
1.88 0.24338813375967283
1.9 0.24544132973641364
1.93 0.2460771748954607
1.95 0.24674136985303996
1.98 0.24863499885074233
2.0 0.24863543491546114
2.02 0.2502937785403263
2.05 0.25144648323331376
2.08 0.25195488770488667
2.1 0.2544728388891754
2.12 0.2555668445425061
2.15 0.25513521923618415
2.18 0.25779769187543333
2.2 0.2596629364266383
2.23 0.2598818567509983
2.25 0.25993397096612486
2.27 0.2615351793572874
2.3 0.26208192782839546
2.33 0.26520219851995713
2.35 0.26456168401098573
2.38 0.26582155228624843
2.4 0.2687354528075985
2.43 0.269644856689339
2.45 0.27008438253595163
2.48 0.27027089993290165
2.5 0.27212521949544616
2.53 0.27182765898337297
2.55 0.2741666183081275
2.58 0.2724958944173243
2.6 0.2752711967707203
2.62 0.274860152100138
2.65 0.27676377383326906
2.68 0.2808052241974706
2.7 0.27912054767752853
2.73 0.27984232541491083
2.75 0.2807737041124077
2.78 0.2817959725516413
2.8 0.2845126633787572
2.83 0.2843491916805148
2.85 0.28446094676284517
2.88 0.2868191711057085
2.9 0.2856505698279751
2.93 0.2882829012589489
2.95 0.2861936457724656
2.98 0.2883380274755409
3.0 0.2898947405722921
3.03 0.2892721533064183
3.05 0.2908627368943567
3.08 0.292811604630164
3.1 0.29507821432735953
3.12 0.29071751573655463
3.15 0.2920775663981433
3.18 0.2964591251605663
3.2 0.2972206768256442
3.23 0.296771540086364
3.25 0.29847217930063663
3.28 0.2981618488765651
3.3 0.29848544608649014
3.33 0.2984670138535229
3.35 0.2986350882065714
3.38 0.2993510358832587
3.4 0.3029826688682672
3.43 0.3017367790614119
3.45 0.3009263607163947
3.48 0.30457119308858294
3.5 0.30709244599693786
3.53 0.30774378343552383
3.55 0.31051163799179676
3.58 0.30987167403571075
3.6 0.3125622143248723
3.62 0.30904805956769404
3.65 0.3076321852582336
3.68 0.31261331756710514
3.7 0.31211828072076625
3.73 0.3159933176139472
3.75 0.31361146121483796
3.78 0.31613403281140157
3.8 0.31218837990435616
3.83 0.31338671990130446
3.85 0.31636024837398585
3.88 0.311287041158761
3.9 0.31467039658643176
3.93 0.31531431220109274
3.95 0.3186517808302098
3.98 0.31652289033215564
4.0 0.31710994835373013
4.03 0.31903385025939585
4.05 0.3174437855191712
4.08 0.32098840633647013
4.1 0.32456030582765716
4.12 0.3277555250161746
4.15 0.3160735954250692
4.17 0.32333008895980037
4.2 0.3241154818664173
4.23 0.3247709478556108
4.25 0.31975181577543116
4.28 0.32364356617183654
4.3 0.3267170996184442
4.33 0.32742346171365644
4.35 0.3247486152321222
4.38 0.32743145799182677
4.4 0.3327355296323826
4.42 0.32697593931078833
4.45 0.3296229317265857
4.48 0.3316887914966702
4.5 0.33266915604620223
4.53 0.3297719658824751
4.55 0.33384775971680847
4.58 0.3290801762782363
4.6 0.3336905608415895
4.62 0.3344680731125639
4.65 0.333698272982202
4.67 0.33798153421985067
4.7 0.3317874860319628
4.73 0.3343167366033327
4.75 0.3391039444856546
4.78 0.3373045072990702
4.8 0.34108688320248437
4.83 0.33758933624430126
4.85 0.3436443089239343
4.88 0.3362165542709179
4.9 0.347756408796337
4.93 0.337003363796355
4.95 0.3401663617363343
4.98 0.343024216152161
5.0 0.3389572083048567
5.03 0.340656107294629
5.05 0.3410659353673246
5.08 0.34549940035712406
5.1 0.34627655349630515
5.12 0.35355550284277765
5.15 0.34191935039690213
5.18 0.34622257764973857
5.2 0.34022682672594134
5.23 0.34808290973505923
5.25 0.3478847198123373
5.28 0.3497468567510094
5.3 0.3470298270309511
5.33 0.35148750369270837
5.35 0.34827538823750126
5.38 0.3509897914487352
5.4 0.34774985720160934
5.43 0.3517461239859337
5.45 0.3534600394636172
5.48 0.3431772364553467
5.5 0.34916111591620264
5.53 0.34702642720085053
5.55 0.3501749210035726
5.58 0.35160608526551884
5.6 0.35433867302777466
5.62 0.3538664211733079
5.65 0.35214708240076686
5.68 0.3572602471730252
5.7 0.34841100317149243
5.73 0.3623835215609125
5.75 0.3541298008534465
5.78 0.3571636878552337
5.8 0.3548052815829851
5.83 0.34883428975970276
5.85 0.35690828799262503
5.88 0.3528833684846714
5.9 0.358294525972425
5.93 0.362337466517169
5.95 0.3582736411502522
5.98 0.3541295831055105
6.0 0.3675262193346964
6.03 0.3580808087561726
6.05 0.3596979108074373
6.08 0.3580053134731364
6.1 0.35807007932582624
6.12 0.3592472635230118
6.15 0.36165105695918454
6.18 0.35472110907368476
6.2 0.3615743688690952
6.23 0.35757228803201
6.25 0.3559961864371612
6.28 0.3683935040985821
6.3 0.354899966619572
6.33 0.3609510688447384
6.35 0.36501834654657833
6.38 0.3712820309394515
6.4 0.3745951856843042
6.43 0.36765449689681434
6.45 0.37326855916747254
6.48 0.3594300534392401
6.5 0.3702632763263715
6.53 0.3668409706949488
6.55 0.3735734813583727
6.58 0.3644499461553962
6.6 0.3725489462070776
6.62 0.3607808701644686
6.65 0.37425620275406335
6.68 0.3657753457362379
6.7 0.3640650565804375
6.73 0.3624064632355672
6.75 0.3759731711462956
6.78 0.3625252988963601
6.8 0.3752885661511206
6.83 0.3780037132329842
6.85 0.367935358738246
6.88 0.37324935313158425
6.9 0.36378287258079234
6.93 0.3650691321012234
6.95 0.37692167595309495
6.98 0.374910855927476
7.0 0.3731623221952883
7.03 0.3787001157310862
7.05 0.3759044555155135
7.08 0.37324968172637385
7.1 0.37226457756586495
7.12 0.36754454994231106
7.15 0.37191994026745634
7.18 0.37414069554664686
7.2 0.3845846510476155
7.23 0.3731642281786628
7.25 0.3747086389207551
7.28 0.379978286633983
7.3 0.38082888068887566
7.33 0.3843475937162578
7.35 0.37316035155735894
7.38 0.38401018598770403
7.4 0.3727687359850506
7.43 0.37790272782858925
7.45 0.39130125077673267
7.48 0.38418569851078305
7.5 0.38872981475997653
7.53 0.3765036326297
7.55 0.39042473260038785
7.58 0.38587981015056005
7.6 0.37177904189830296
7.62 0.37432138818625676
7.65 0.38107621736703523
7.68 0.3802215939782591
7.7 0.3849671484500181
7.73 0.3797413541732101
7.75 0.3762477536909299
7.78 0.3870644743824424
7.8 0.3810107625796386
7.83 0.3897827389126846
7.85 0.38550015513797387
7.88 0.3654532019790719
7.9 0.37585410200067126
7.93 0.38769623591180896
7.95 0.39155751909979036
7.98 0.39708885593463855
8.0 0.38119653552244115
8.03 0.38398768386612303
8.05 0.39716183802168464
8.08 0.38900814475328666
8.1 0.3806377600639882
8.12 0.38081822494700623
8.15 0.37529561947995627
8.18 0.38213224610547536
8.2 0.3857035577078188
8.22 0.3745597527603435
8.25 0.39383699956333956
8.28 0.3969407870672021
8.3 0.37921918189355874
8.33 0.38459138881567384
8.35 0.3897407875572029
8.38 0.3807847439319499
8.4 0.3951126967177339
8.43 0.4015181801540913
8.45 0.38154784266470165
8.47 0.3710341121833456
8.5 0.387081834469018
8.53 0.3865855238449051
8.55 0.37690845114723104
8.58 0.3964101146909141
8.6 0.40467149608833364
8.62 0.3924998169596495
8.65 0.3914897157852573
8.68 0.3994935565049371
8.7 0.4012187071731295
8.72 0.40948523488652366
8.75 0.4078053961001055
8.78 0.3938536768617746
8.8 0.38272624083322826
8.83 0.39388043547208923
8.85 0.39255170818513235
8.88 0.4001489903670322
8.9 0.40204021543818025
8.93 0.3976552661464753
8.95 0.3960212786643556
8.97 0.396611230979162
9.0 0.4084179917645528
9.03 0.4047376650293362
9.05 0.39453718432465557
9.08 0.3990076151086831
9.1 0.40929332957138853
9.12 0.4024314228279534
9.15 0.3936551685212416
9.18 0.39155125444122063
9.2 0.39303299795227825
9.22 0.3905420079436166
9.25 0.3941101872946816
9.28 0.4035042735974946
9.3 0.4057928133393051
9.33 0.39530205214464004
9.35 0.3900790116295619
9.38 0.4001450473164614
9.4 0.4036266373406635
9.43 0.4031225048820567
9.45 0.39831879440858403
9.47 0.4078944136576301
9.5 0.4106813547029359
9.53 0.4027016063651766
9.55 0.39762268307261633
9.58 0.3933460784928325
9.6 0.3963958712041033
9.62 0.3892344095897016
9.65 0.3873428117293238
9.68 0.39722456886627366
9.7 0.41415474292230636
9.73 0.41188174036130415
9.75 0.3968600667280998
9.78 0.3923049997351252
9.8 0.414553832514544
9.83 0.42093555745022554
9.85 0.4151704385357545
9.88 0.4149429962374761
9.9 0.41191374167574013
9.93 0.4064874147821868
9.95 0.3991460514283972
9.98 0.3967233975796147
10.0 0.4095016086200218
10.03 0.41337517994602
10.05 0.39810467051816645
10.08 0.3886676914595887
10.1 0.3960056488609566
10.12 0.4134868496864065
10.15 0.41907382049950465
10.18 0.40681234489143214
10.2 0.40809668954531003
10.23 0.4168379552667145
10.25 0.42803651410143356
10.28 0.4187365228825264
10.3 0.40947267483004574
10.33 0.4101480716441381
10.35 0.41346792393518295
10.38 0.41850243367800505
10.4 0.4111874827347271
10.43 0.4117583165869506
10.45 0.40869731963451605
10.48 0.412306923896491
10.5 0.42372727229283147
10.53 0.4168435521521284
10.55 0.41783216214055935
10.58 0.41478352380421163
10.6 0.423748173830257
10.62 0.43853621280103744
10.65 0.43319500843330405
10.68 0.4144590405666529
10.7 0.41433384140971913
10.73 0.4175849849574059
10.75 0.41980468447015834
10.78 0.41738017745057104
10.8 0.40813731477844495
10.83 0.4117882286280707
10.85 0.4279450423863841
10.88 0.4427354214104995
10.9 0.4434718614407284
10.93 0.4264820945959043
10.95 0.40208679992745705
10.98 0.3968867757106862
11.0 0.4068850026952589
11.03 0.4117795915831038
11.05 0.4105799643362186
11.08 0.40417008466302407
11.1 0.4124432330580382
11.12 0.4257685315628224
11.15 0.42937537666653325
11.18 0.4238041075107366
11.2 0.4096304040164607
11.23 0.40088810274147274
11.25 0.40267609478682326
11.28 0.410975015624654
11.3 0.4216742020462113
11.33 0.42002405635211626
11.35 0.4137843520585711
11.38 0.40872688352465225
11.4 0.4146032406339417
11.43 0.42276591282586296
11.45 0.4249726035908178
11.48 0.4238368116552664
11.5 0.4139080461482002
11.53 0.4110594707238227
11.55 0.4146337983146206
11.58 0.41279265812767985
11.6 0.4061325087307673
11.62 0.4020565053070247
11.65 0.40526416411661476
11.68 0.4038773324606671
11.7 0.4145670982390115
11.73 0.41747230994319384
11.75 0.4185078729744576
11.78 0.4206991519122694
11.8 0.41073985526028567
11.83 0.40664659540953063
11.85 0.41478630700861213
11.88 0.42596653079779917
11.9 0.42997102734508225
11.93 0.4347341444792049
11.95 0.4252349184973492
11.98 0.4205944691504218
12.0 0.42025430327953445
12.03 0.4229495996875101
12.05 0.4239785240427227
12.08 0.4355280003395535
12.1 0.43114914481811356
12.12 0.4210462930810794
12.15 0.4167650356838908
12.18 0.41936789082876647
12.2 0.42122217672116036
12.23 0.41538831049726554
12.25 0.4062282451777497
12.28 0.39633303688086113
12.3 0.3969801204495024
12.33 0.3979776728902744
12.35 0.4124509085031176
12.38 0.43602768091156807
12.4 0.4383183802557232
12.43 0.4301205311361195
12.45 0.41740828572540134
12.48 0.41321884319617214
12.5 0.40651048528834927
12.53 0.4186762558982203
12.55 0.42019006131039394
12.58 0.41937614791531125
12.6 0.42340188772686205
12.62 0.42172242645020497
12.65 0.41999928093594036
12.68 0.42163281094479604
12.7 0.4300850762226817
12.73 0.4378202311815389
12.75 0.4430493089974731
12.78 0.44185512893898093
12.8 0.4308084609745273
12.83 0.42160377605028804
12.85 0.42086593783788173
12.88 0.4187742315656099
12.9 0.4224119978172067
12.93 0.42551220832908576
12.95 0.4284612266829148
12.98 0.4345112487997326
13.0 0.435965192561916
13.03 0.43113414074569695
13.05 0.4245374611184672
13.08 0.42880567261359664
13.1 0.43222071723511973
13.12 0.4307956692344553
13.15 0.4318833706103713
13.18 0.4385342802921248
13.2 0.43632461251285964
13.23 0.43672443204685146
13.25 0.43532243905656137
13.28 0.4355859842428862
13.3 0.4365459257984862
13.33 0.4379500727151628
13.35 0.44539578410106917
13.38 0.4525659064653039
13.4 0.44580066448357025
13.43 0.44095169364722897
13.45 0.44102945129403465
13.48 0.4434973833185346
13.5 0.4522108758750334
13.53 0.4554745873350109
13.55 0.44616644573995057
13.58 0.44513177456366504
13.6 0.4450547202490406
13.62 0.44441884996109193
13.65 0.43618111980020513
13.68 0.4282393693787591
13.7 0.4241809011891396
13.73 0.4370279804257814
13.75 0.43977994107759927
13.78 0.44107296241913896
13.8 0.43778758066126305
13.83 0.4385941236041289
13.85 0.43402100070059335
13.88 0.4303357092643742
13.9 0.4376293183172206
13.93 0.4372667292040571
13.95 0.4343499978888015
13.98 0.42972020938847955
14.0 0.43224674889277376
14.03 0.4330720771975759
14.05 0.43809352265788015
14.08 0.4312632654768443
14.1 0.4318731900815087
14.12 0.4340239065649878
14.15 0.437974865837424
14.18 0.43136211289200077
14.2 0.42470186643797525
14.23 0.4174276278777667
14.25 0.412939840498895
14.28 0.4200821718413042
14.3 0.43047461012586186
14.33 0.4317453686366296
14.35 0.43918158132464413
14.38 0.44700920269892913
14.4 0.4472790920495633
14.43 0.44403861169680575
14.45 0.43762129599428135
14.48 0.43384053482640034
14.5 0.4284927264060297
14.53 0.42516240714429515
14.55 0.42401979336854473
14.58 0.42438141546447855
14.6 0.4310083490348552
14.62 0.43550416689564386
14.65 0.4290675338065048
14.68 0.4248701181299856
14.7 0.4254456028407508
14.73 0.4318337785869513
14.75 0.4284914467727012
14.78 0.4234593999533321
14.8 0.4235536557614027
14.83 0.42886286814902846
14.85 0.4322022745313268
14.88 0.43965330343957587
14.9 0.44308684341465376
14.93 0.43447355166653406
14.95 0.43816419593615846
14.98 0.43720834218754057
15.0 0.42845135315390287
15.03 0.4163183138582918
15.05 0.41448261822494975
15.08 0.4185574202486621
15.1 0.426590973626177
15.12 0.42785346856326517
15.15 0.4302418015539084
15.18 0.4362554928533439
15.2 0.4369411808210478
15.23 0.43411957434789694
15.25 0.4329766430545414
15.28 0.4354433638099863
15.3 0.4398188992384067
15.33 0.44327102125072027
15.35 0.44687431605078426
15.38 0.45474737333574566
15.4 0.46112950878060516
15.43 0.4555895859113387
15.45 0.4486850994135623
15.48 0.4447575697718543
15.5 0.43651512756589866
15.53 0.4348697145065906
15.55 0.4307773141943582
15.58 0.4324332649553874
15.6 0.431078506723046
15.62 0.43604811519267916
15.65 0.45014497942404913
15.68 0.4447028879563015
15.7 0.43488525810131434
15.73 0.4267980758787128
15.75 0.42161987281912955
15.78 0.4194541993686586
15.8 0.4250461995404263
15.83 0.4306450235447904
15.85 0.43687807334111883
15.88 0.44406376031232203
15.9 0.45189370073940094
15.93 0.46176235958514705
15.95 0.4634225970694908
15.98 0.4597017346955581
16.0 0.45128574611571254
16.03 0.44416974027044226
16.05 0.4441496032821832
16.07 0.44056557498047255
16.1 0.44167340418193257
16.12 0.4431820764269163
16.15 0.441947998495365
16.18 0.43569089501117647
16.2 0.4366195985038981
16.23 0.44176630916602916
16.25 0.446316231340497
16.28 0.4495008475986391
16.3 0.4487219011027024
16.32 0.4526700345032234
16.35 0.46296636130025703
16.38 0.4666606489464828
16.4 0.46747966563179133
16.43 0.4715713321476649
16.45 0.4678139948893397
16.48 0.4677227864036903
16.5 0.4715996385999464
16.53 0.4751368325260465
16.55 0.4773847636435892
16.57 0.46915218080419235
16.6 0.46195628781575476
16.62 0.4649749434864802
16.65 0.4713205239023084
16.68 0.4714780007016226
16.7 0.47892145830113275
16.73 0.4723957559380289
16.75 0.46206178732546654
16.78 0.45827534177703033
16.8 0.46476714086842263
16.82 0.46678029113713915
16.85 0.46195690346341745
16.88 0.4520148363974135
16.9 0.4395299416574661
16.93 0.4259248668985557
16.95 0.4197777098160357
16.98 0.42636395182360576
17.0 0.428802578127919
17.03 0.43201080690995464
17.05 0.430318763602365
17.07 0.4291645317331822
17.1 0.43403796273989176
17.12 0.4433495754490729
17.15 0.45832873440784583
17.18 0.46657073676124394
17.2 0.47324245393720765
17.23 0.47435305782400305
17.25 0.4647521350515404
17.28 0.46723251451198894
17.3 0.46536155972832394
17.32 0.4615562893004868
17.35 0.4628532167009651
17.38 0.45713313929311467
17.4 0.45204303053795253
17.43 0.4476575526927124
17.45 0.4462436930571609
17.48 0.4428143916650958
17.5 0.438593349490922
17.53 0.437432764642009
17.55 0.44247860006142725
17.57 0.4506992579704404
17.6 0.45046736540738574
17.62 0.4521550122536564
17.65 0.4601754380578994
17.68 0.464843036057416
17.7 0.4669474329886567
17.73 0.47204647819063916
17.75 0.4753485420398046
17.78 0.47668755255804873
17.8 0.47566983165146787
17.82 0.47114165622046716
17.85 0.46666071383002217
17.88 0.4722430438662162
17.9 0.4708957804078206
17.93 0.47038111880366806
17.95 0.4731520734467248
17.98 0.47563775765935146
18.0 0.4740854503848979
18.03 0.46664970377742526
18.05 0.46188896970537996
18.07 0.46131908912992997
18.1 0.4651372540250424
18.12 0.46828049326861576
18.15 0.4608914724168523
18.18 0.45728337686772946
18.2 0.4561685930190903
18.23 0.44861253599174894
18.25 0.44314449968487457
18.28 0.44009107642836437
18.3 0.44088382756973915
18.32 0.44053213405530084
18.35 0.4401464049748227
18.38 0.4373395307349218
18.4 0.43534878308588376
18.43 0.4399861912951642
18.45 0.44436014795893825
18.48 0.44985267189063377
18.5 0.4568173874781401
18.53 0.4656170735978782
18.55 0.47609291247945784
18.57 0.48001017674591845
18.6 0.4828846584952636
18.62 0.4802819275423597
18.65 0.4762448118824687
18.68 0.4703633263834497
18.7 0.4697646570539748
18.73 0.46824225442913736
18.75 0.46274468689061987
18.78 0.4598974911119826
18.8 0.4585936451878808
18.82 0.45971926550816417
18.85 0.45410089352840594
18.88 0.44978767224963
18.9 0.45278383882068723
18.93 0.45055123095723204
18.95 0.4525956867444783
18.98 0.4564446432671669
19.0 0.45963677536631403
19.03 0.465001085250237
19.05 0.46627845624754727
19.07 0.4653974602348322
19.1 0.46707276718576823
19.12 0.4664075945755833
19.15 0.4637141703732112
19.18 0.46093298396839383
19.2 0.4598570038352919
19.23 0.4632699392815363
19.25 0.4770334496406775
19.28 0.47976047138016276
19.3 0.4828192700377344
19.33 0.48344015742731156
19.35 0.48332633445251977
19.38 0.4832067416002667
19.4 0.4857613158442535
19.43 0.48594694679183686
19.45 0.48504411767291683
19.48 0.4812386652845776
19.5 0.47356850818168156
19.53 0.46650181674125335
19.55 0.4638418801377291
19.58 0.46625673610749535
19.6 0.4738616811372094
19.62 0.4895411108322449
19.65 0.49083437563505655
19.68 0.4909037012395368
19.7 0.4874410294615824
19.73 0.4844804452047166
19.75 0.4792731500369896
19.78 0.47277256204814416
19.8 0.46770546416442943
19.83 0.46229117596656644
19.85 0.4573716851333978
19.88 0.4539856703187703
19.9 0.45412343458851073
19.93 0.4499490226089161
19.95 0.44927108334149646
19.98 0.4487568429219243
20.0 0.45237582988535574
20.03 0.4625434493599854
20.05 0.464472286226905
20.08 0.46392138085296
20.1 0.4620493746430273
20.12 0.4609409225700018
20.15 0.46398186250013135
20.18 0.46410982576433024
